edge_mean,edge_max,coherence_mean,novelty_mean,risk_mean,identity_mean,globe_count,hrv,eda,emg,resp,imu,temp
0.17479914136795788,0.27209707353363016,0.32972063757293246,0.01718232913569922,0.5215438815472838,0.5816653990968635,0,0.4979678579874716,0.4627363076938116,0.26407414923718914,0.4273601183437737,0.26376395383784634,0.43968228277332433
0.19016382126872405,0.29340922892963206,0.3378046434238789,0.03479403246759468,0.5404983094976679,0.5674825689691227,0,0.49672914833365833,0.46698017524080915,0.26442083210068784,0.42890597527924285,0.2673270178986566,0.42688677516002466
0.20703832338873873,0.31457932495328045,0.34681283998381096,0.05602460817128217,0.5582822740479118,0.5529841569838109,0,0.4955054417822823,0.47119151584832497,0.26476581742590344,0.43043932297311316,0.10054536222936866,0.4677325737957495
0.22450395929764144,0.3370521630660514,0.35569916006856506,0.08167942052507021,0.5789966178262076,0.536842834827143,0,0.49430094003609515,0.4753612056097913,0.2651090784973449,0.43195665335027683,0.48455740365900013,0.48471917558934763
0.24282284854127553,0.36070243730651447,0.3647166344773036,0.11105205798368423,0.5998545038163329,0.5199179631230564,0,0.49311982265691284,0.47948016859119147,0.2654505887330462,0.4334544767865781,0.43292563444458765,0.4739007927980136
0.26223662606064535,0.39395451185676417,0.37390183914928854,0.14273164750006445,0.6214717720780913,0.5020796827835458,0,0.4919662371736552,0.48353939826390385,0.26579032168662553,0.4349293303522005,0.4523990239737045,0.4834185586947916
0.28255452786354845,0.4297991844833644,0.383131334538522,0.17711523315682579,0.643624806691329,0.4833027971255629,0,0.4908442892617384,0.4875299787829457,0.26612825104933263,0.436377785995592,0.4038222345830021,0.40101282248737957
0.30283410839741365,0.44907244658121537,0.3929649274667739,0.21504743764964857,0.6660925498687766,0.46366637956180995,0,0.4897580330171882,0.49144310605998986,0.26646435065208657,0.4377964586484572,0.41493634973923393,0.4265599298631993
0.32345769311377637,0.4648602279527373,0.40293739810005835,0.2565040742055644,0.6904100759886653,0.4427701119601939,0,0.48871146134861654,0.4952701085810116,0.2667985944675021,0.4391820142325299,0.6216211043807213,0.49778720220838424
0.3449445276644467,0.4859787047892845,0.41296498758001965,0.2989133746838919,0.7131955518544063,0.42186564506418434,1,0.4877084965099236,0.4990024679190293,0.2671309566119051,0.4405311775490743,0.18103797555184287,0.444250829687387
0.3678225184916767,0.5127180006797315,0.4231380260973853,0.34452528933201354,0.734080004961144,0.40027248970392565,1,0.4867529807962536,0.5026318388931272,0.2674614113473373,0.44184074003234064,0.22809776785067176,0.5001886956897783
0.3914510289147097,0.541322359561137,0.43397290697363045,0.3920655199987445,0.7502317206485208,0.3776725744761805,2,0.4858486674253483,0.5061500693257872,0.2677899330835491,0.443107567348525,0.4935665076981376,0.47503041638107457
0.412859979995282,0.5621874473770809,0.4454903079462602,0.43579439609221243,0.7619533432639098,0.35521408930561904,2,0.484999211625995,0.5095492193515118,0.2681164963799814,0.44432860682214753,0.363223692981183,0.4901858257125944
0.4320321023105378,0.5707837279749387,0.45701470161637625,0.46749896869700347,0.7642544257288584,0.33298722993253216,5,0.48420816195478045,0.5128215802307854,0.2684410759477358,0.44550089467217735,0.3969036444325163,0.45662499725580025
0.4472700345120567,0.5645059568691171,0.4684436861137813,0.4876975319051982,0.7623399590612774,0.3113702072095513,5,0.48347895186181655,0.515959692624599,0.26876364665153274,0.44662156304068074,0.37421215468907537,0.4609500259758851
0.4593230660068913,0.556714612839657,0.4799650207194242,0.501645062181388,0.7587441451916808,0.2904266069120185,5,0.48281489152551116,0.5189563642860402,0.269084183511658,0.4476878467972657,0.32867920515826715,0.43473255702542835
0.47015637913615643,0.5641557409042841,0.4916899245423766,0.5148699274319295,0.7538812777634287,0.27027144530274916,5,0.4822191599758189,0.5218046871268448,0.26940266170589755,0.44869709010312453,0.29445176914720755,0.45829269215063817
0.4803916320794584,0.5739060192489747,0.502812490936063,0.5261729460637613,0.7488516241338363,0.2508355938310342,5,0.4816947975247231,0.5244980536182824,0.269719056571459,0.4496467527190524,0.2471099504414705,0.43256624077368055
0.488813737845307,0.5843579003734438,0.514442537195186,0.5356917416489366,0.7431253767612136,0.23183966661629066,7,0.48124469852196416,0.5270301724873385,0.27003334360688214,0.4505344160424265,0.42388733878527823,0.497955378480605
0.49592606418072915,0.5928138786974997,0.5255330177070436,0.5434527270894585,0.7375113206477979,0.2132400878932934,7,0.4808716044532621,0.5293950836708274,0.27034549847393596,0.4513577888587733,0.5154942095990658,0.42834987324238083
0.5016497844084157,0.6011918329598533,0.5362691154841039,0.5493340801497135,0.7319540471178982,0.1972948824172767,11,0.48057809739746343,0.5315871724918363,0.2706554969995037,0.452114712794232,0.3097749840435936,0.4031257306178299
0.5059019984554678,0.6093517792281322,0.5472036189203497,0.5536177993486786,0.7260593157710628,0.18315874145313604,11,0.4803665938581882,0.53360118302475,0.2709633151774543,0.45280316745593513,0.33133899666963174,0.44501050808098547
0.509359319673748,0.6142874081760392,0.5593451321198402,0.5574386091134956,0.7192779847885258,0.16995732555688692,11,0.48023933898466653,0.535432230617035,0.271268929170502,0.45342127524806386,0.3063684454903587,0.4464722314240728
0.5118661528123909,0.6158665991861821,0.5711230202349464,0.5601864965462453,0.7125896407381154,0.15720730282946715,11,0.48019840119552293,0.5370758135379667,0.27157231531205184,0.453967305852114,0.39956746067322674,0.4899159709771463
0.5140425536569561,0.6170387420807635,0.5827015044734378,0.5633262119204088,0.7060784208566373,0.14615794110554647,11,0.4802456672183124,0.5385278237265625,0.2718734501080326,0.45443968036070154,0.4501596811141439,0.44313258853118387
0.5158510571510804,0.6181183630426466,0.5942888040403955,0.565484844843521,0.6994946131759299,0.13700187241536757,11,0.4803828375566228,0.5397845566131221,0.2721723102387163,0.45483697505506393,0.3336798656077849,0.5205108071777511
0.5171804638291473,0.6190935983117491,0.6054424577860614,0.5677124737743461,0.6931900591816627,0.12824391231184426,10,0.4806114223955382,0.5408427199909835,0.27246887256052366,0.45515792481725925,0.3036438283898068,0.4679688620073572
0.5181835912445794,0.6203400805939707,0.6167057157573228,0.5691012340308155,0.6866925348185229,0.11975617242803105,10,0.48093273795521985,0.5416994419173602,0.27276311410781673,0.4554014261689353,0.3622469047859683,0.4254259404748582
0.5186094831796098,0.6209989042906096,0.6279080545522899,0.5703349195962983,0.6802252915526168,0.11186072997372179,10,0.4813479033012902,0.5423522776244338,0.2730550120946771,0.455566539929428,0.37334805782718833,0.4960118100549754
0.5179406786590903,0.6218134714337907,0.6390102046474283,0.5714341833703969,0.6738048003331878,0.10520865429514026,10,0.48185783761962553,0.5427992154242344,0.2733445439166706,0.4556524934868543,0.42140398371714854,0.43893207988796584
0.5168867997644724,0.6222687044423476,0.6492809858640236,0.5729360833101838,0.6679067326716396,0.09898237404295726,8,0.48246325796204975,0.5430386815932289,0.2736316871525976,0.45565868267678633,0.41227184821982954,0.5026323241917008
0.5152794015189571,0.6225863100784783,0.65946641263153,0.5748743966978588,0.6621177832920392,0.09322808220390238,8,0.4831646774683089,0.543069544224971,0.27391641956622936,0.45558467326402413,0.32858173469510366,0.4563982132660867
0.5130262570076691,0.6231116436038024,0.6693512435366141,0.5767118988349831,0.6565066626233884,0.0884365793330087,7,0.4839624040685701,0.5428911160416143,0.2741987191080302,0.4554302020239339,0.5365579692112978,0.46055219494034083
0.5104877990472634,0.6236400624635418,0.6789222765767633,0.5785396499825138,0.6511100198087012,0.08422414232283268,7,0.48485653966954434,0.5425031561575734,0.2744785639168645,0.4551951774207635,0.3508455995810489,0.5169853388273009
0.5083931669782489,0.6239476771520522,0.6879423436362044,0.5796154026113474,0.6458927188633815,0.08001392971574076,7,0.48584697982618424,0.5419058707911044,0.2747559323216902,0.4548796798813138,0.4984317112029985,0.461086169822765
0.5063449208911579,0.6242498876280677,0.6967859446616645,0.5796151403401559,0.6406745275934491,0.07622711527724269,5,0.4869334138997525,0.5410999129220857,0.27503080284323667,0.454483961663301,0.3635908787491842,0.46062986067223194
0.504854248546937,0.6246832444496888,0.7052209058869983,0.5790507412391173,0.6356491204621528,0.07325944713731969,5,0.4881153257018974,0.5400863808967792,0.2753031541956681,0.4540084463187119,0.313363851191113,0.5081210305135829
0.5033841825238607,0.624930660195157,0.7130571727503535,0.5778683795799877,0.6308661934697917,0.07051798627169878,5,0.4893919946232202,0.5388668159828625,0.2755729652882317,0.4534537277534175,0.4545618933550068,0.4565824410621559
0.5016659502005428,0.6252017043325904,0.7208169107508267,0.5766645909242194,0.6261221455734306,0.0682933289908055,5,0.4907624972436603,0.5374431988805196,0.27584021522689156,0.4528205688852702,0.19992848433510352,0.4680426470873802
0.4995647017854025,0.6253642162408918,0.7284623451884147,0.5751162081137755,0.621361934363243,0.06596241866766504,5,0.49222570942088506,0.535817945197857,0.2761048833159458,0.45210989990386513,0.5068675664953572,0.4748186977030165
0.4977279493269698,0.6254882850781276,0.7350920683706865,0.5732879645235592,0.6171420488598178,0.06366406664831073,5,0.493780308851728,0.5339938999013799,0.2763669490596299,0.4513228161360931,0.617292565528317,0.49071998740782774
0.49574617833690937,0.6255863507727345,0.7416682666798778,0.5713927284508946,0.6129604865676135,0.06153236657750823,5,0.4954247781005977,0.5319743307547,0.27662639216370366,0.4504605755225527,0.5727678052031313,0.47556055104928135
0.4933394428201636,0.6256958562651986,0.7480059815287846,0.5696336632003106,0.608973097651966,0.05991080840747731,5,0.4971574080876663,0.5297629207610526,0.27688319253702276,0.44952459571081116,0.21113870191361606,0.4816198914186515
0.4907216710599763,0.6256894772206936,0.7537725075317143,0.5671056284186198,0.6051963545759973,0.05799499632591874,4,0.498976302028555,0.5273637596275694,0.2771373302930946,0.4485164507724193,0.5774811865051843,0.4695548009563059
0.48810468684957303,0.6266990252479409,0.7593668919993676,0.5650546084918482,0.6015728752112384,0.05633337699249251,3,0.5008793798161585,0.5247813342715867,0.2773887857516184,0.44743786755147563,0.35475504900978794,0.3839366158633521
0.4853692369257242,0.6275061125499344,0.7646687553861484,0.5624654585543755,0.5980685508397168,0.054782028520900555,3,0.5028643828341995,0.5220205183915356,0.27763753944000913,0.446290721653417,0.4026108272128024,0.4489613158648893
0.4827118164519769,0.6285858036359934,0.7700529828780652,0.5602804537345556,0.5945561944131538,0.05349517410067266,3,0.504928879191075,0.5190865611271999,0.27788357209490533,0.44507703308356444,0.3180277992587438,0.49428992981400177
0.4798491925644953,0.6295161158395396,0.7750116627524573,0.5578345776434781,0.5912814080254173,0.0523348877078217,1,0.5070702693615615,0.5159850748362802,0.2781268646636613,0.443798961545788,0.28910800160657446,0.4643620833892663
0.47730010392463434,0.6302889745152533,0.7793605778407133,0.5550727653388094,0.5883449020397491,0.051117633753762416,1,0.5092857922229701,0.5127220220163168,0.2783673983058221,0.4424588014124617,0.3910877268172533,0.43632484198086474
0.47464631500739385,0.6311935312731116,0.7832256445663592,0.5519530327360558,0.5856646426610046,0.049952079824467255,1,0.5115725314714095,0.5093037014030455,0.27860515439458255,0.44105897637766434,0.3891806172500122,0.40845544149416135
0.4713867947563256,0.632176107751901,0.7868704706375909,0.5483633945512525,0.5830629764217836,0.04893959398415969,1,0.5139274224029057,0.5057367332782283,0.2788401145182301,0.43960203380632956,0.481262246094112,0.49784780874091483
0.4677735405914934,0.6333311769392436,0.7904853021831569,0.5444114337353971,0.5804778600727925,0.048661479449614735,1,0.5163472590432653,0.502028044021875,0.2790722604815702,0.4380906387927793,0.31695573257486365,0.439189391205653
0.46439489427938097,0.6345761023621631,0.7937301637315353,0.5403987227689442,0.5781267289788472,0.04848450986901864,1,0.5188287016097352,0.49818484994557266,0.2793015743073353,0.43652756794275877,0.27853187196459983,0.4419726550506886
0.4611923679801352,0.6356085164688554,0.7968762366146944,0.5359648133071487,0.5757873153098216,0.048236739467592715,1,0.5213682842867227,0.4942146404453474,0.27952803823757755,0.4349157028937538,0.4334022625386122,0.4903728253965897
0.45807908155646315,0.6366926655221239,0.7996768946532693,0.5314525926519786,0.5736597481927944,0.04798752131883595,0,0.5239624232970991,0.49012516051410043,0.27975163473504316,0.43325802358899046,0.4383001756723209,0.4521445282962665
0.45484309430329295,0.6378889404288683,0.8026563452038009,0.5266009893469402,0.5714064895809006,0.04794718984346219,0,0.5266074252498965,0.48592439265518633,0.27997234648453123,0.43155760132110454,0.3419918351648318,0.48997160373050586
0.45189784945404876,0.6387238166594175,0.805346530897389,0.5219597094506836,0.5693491784789635,0.0479283528805267,0,0.529299495744562,0.48162053824012147,0.28019015639423417,0.42981759156201566,0.385443773585823,0.4844225809538032
0.4486886825516166,0.6385269524843784,0.8078305166766058,0.5157856750849836,0.5672338033729837,0.0480520819033393,0,0.5320347482113136,0.4772219983547351,0.28040504759706136,0.4280412265960475,0.3965155977533194,0.4604792191927102
0.4457135996089068,0.6379522563127966,0.8098213778364082,0.5090742655776621,0.5653643953248344,0.04846969520040284,0,0.5348092129665882,0.4727373541792896,0.2806170034519455,0.42623180797380633,0.4458712485042345,0.4791268212862233
0.442580047720559,0.6373709559827838,0.8118509435942554,0.5025916446075414,0.5635170263395688,0.048840482654924994,0,0.5376188464620563,0.4681753469492051,0.2808260075451311,0.42439269880475305,0.5305776437143915,0.46701912044476274
0.4388360744620202,0.6372040335798926,0.8143524570910834,0.4956570968417128,0.5613435985097528,0.04960026475177889,0,0.5404595407052202,0.4635448575440201,0.28103204369144563,0.42252731590678944,0.217957667794129,0.42826597045582226
0.4356601906361417,0.6365071637464903,0.8164925859194012,0.48827305817832956,0.5593125536890039,0.05014606516527538,0,0.5433271328292035,0.4588548857531024,0.28123509593555296,0.42063912183151697,0.482528679794377,0.47118441215185725
0.4325391621596242,0.6359883835028897,0.8189405181124882,0.48114703349032956,0.5571229673193432,0.05074895141964484,0,0.5462174147889884,0.4541145292673936,0.28143514855318863,0.4187316167841248,0.45801443995613256,0.44573438228687323
0.42952908759568426,0.6352445362458117,0.8210029023225998,0.4739457702735188,0.5551623698242472,0.05136529140002007,0,0.549126143161051,0.4493329624471191,0.28163218605237794,0.4168083304571101,0.462193116065891,0.42651021073565026
0.4263578028460432,0.6345232683797659,0.8228188952007021,0.4665712385368389,0.5533498011941587,0.052117467300340434,0,0.5520490490231071,0.4445194149159293,0.28182619317463553,0.4148728137972408,0.3521260914198635,0.4112955747716366
0.4232919289128122,0.6334362536808246,0.8248947432412757,0.4598741085956743,0.5514555018522787,0.052637644912134164,0,0.5549818478904855,0.4396831500323458,0.2820171548961467,0.4129286307253295,0.6075596342785883,0.4538057813203929
0.42085314198514556,0.6326086196693442,0.8269397586781947,0.4534409714019709,0.5496344730882243,0.053397458310470824,0,0.5579202496855135,0.43483344328968127,0.28220505642893123,0.41097934982849504,0.41757233658799014,0.4626629225609472
0.4191891310250805,0.6316572898826519,0.829234840182996,0.44713115505738404,0.5476838494596434,0.05413750808048516,0,0.5608599687162226,0.4299795606957658,0.2823898832219883,0.40902853604465933,0.47102290277085196,0.4930777200496139
0.4172025268836582,0.6307490841986696,0.8315804273967684,0.4413076392332773,0.5457036706293297,0.054912976226468437,0,0.5637967336406593,0.42513073718386085,0.28257162096242344,0.40707974235903815,0.38804413520217573,0.414282030121887
0.4157044112532947,0.6299369865237942,0.8337990755215681,0.4356242572615601,0.543832531027509,0.05579361568146342,0,0.5667262973931231,0.42029615510606627,0.2827502555765568,0.4051365015323609,0.3618608668496551,0.4803728290320467
0.41416852834097373,0.6286074213489382,0.8363924144175036,0.43011275162530443,0.541725613173932,0.05639598130430877,0,0.5696444470487415,0.41548492286032673,0.2829257732310132,0.403202317880474,0.5516125073558684,0.4294869718620297
0.41328271191253124,0.6277371014129155,0.8392023320990712,0.4245915908197113,0.5394814865799846,0.05737795811636939,0,0.5725470136029456,0.4107060537018239,0.2830981603337931,0.4012806591248624,0.3214076786975701,0.4814714734257062
0.4124543415064922,0.6264380821020175,0.842791721247319,0.41935125894520625,0.5368009049623315,0.05823986277430769,0,0.5754298816426061,0.4059684447891011,0.28326740353532553,0.3993749483334529,0.44592052902444324,0.4792827990076566
0.411557201267055,0.6247592563936597,0.8459747923853419,0.41411672702122226,0.5343740953474118,0.059104287126553495,0,0.5782889988858537,0.40128085651470635,0.28343348972950144,0.39748855597084704,0.4784641033872435,0.4691229140964379
0.4095563789290646,0.6231343473521038,0.8497774834259106,0.40903343202184483,0.5316198240718091,0.060256215712548016,0,0.5811203855679197,0.39665189216945834,0.28359640605468905,0.3956247920768713,0.30334428146916176,0.437885207512297
0.4069016201511112,0.6215035913976397,0.8533553667352505,0.4041152982996117,0.5290217264134329,0.06131715062905686,0,0.5839201436506981,0.39208997798864764,0.2837561398947295,0.39378689859202487,0.4536082741276736,0.47678041455538045
0.4043640415402744,0.6158745955151936,0.8572347566011214,0.3994484247415792,0.5262845534351649,0.06251045810894647,0,0.5866844658341538,0.3876033436275722,0.283912678879914,0.39197804184805607,0.44506898797307326,0.5278771080031952
0.4035374376246999,0.6091988973985472,0.8613545859856802,0.39541699374506045,0.5234804498621952,0.06361580927946228,0,0.5894096443481728,0.3832000031127812,0.28406601088794187,0.39020130524150415,0.5487876224716737,0.5284729741666806
0.4022500993515019,0.6019052945511054,0.8655419593551397,0.39199707021981256,0.5206576530396848,0.06484817109597267,0,0.5920920795039728,0.37888773631427053,0.28421612404485896,0.3884596821076062,0.44644828813284587,0.4712803483839968
0.400730042008528,0.595366563304832,0.8695278512500078,0.3888103531671579,0.5179648952172418,0.066156407197007,0,0.5947282879847686,0.37467407098262806,0.2843630067259774,0.386756068811493,0.39633111982844516,0.4342132382687892
0.3991839979457422,0.5884722332676299,0.8735941427116307,0.38606716772599886,0.5152898916105682,0.06758000304257053,0,0.5973149108560043,0.37056626539378124,0.2845066475567758,0.38509325807307826,0.33542136897800545,0.42132449075068285
0.397131166339014,0.5813588144881778,0.8776591282258219,0.38340428181661323,0.5126154962386137,0.06890336268531333,0,0.5998487212761359,0.36657129164255303,0.28464703541378006,0.38347393254148887,0.4369248209763514,0.4180014219276469
0.39545627811856454,0.574017513079439,0.8816585428586226,0.381278928285459,0.509989654838524,0.0702725899594944,0,0.6023266318896613,0.3626958196246821,0.2847841594254246,0.38190065863428985,0.4597879190185767,0.44350575421090066
0.3938636571919134,0.5671390763433664,0.8855661025009711,0.37908354228080743,0.5074105781219866,0.07179402845487999,0,0.6047457018848496,0.358946201745327,0.28491800897289454,0.3803758806561257,0.43625277663217543,0.5003822662231406
0.3919168981378288,0.5570411686177278,0.8895133509070839,0.37666807771890265,0.5048083773249088,0.07358256908778349,0,0.6071031436994232,0.355328458390339,0.2850485736909478,0.3789019152107347,0.25536894654627296,0.45396599960350337
